Time(s),phi,phi_dot
0,0.3,0
0.1,0.299066652,-0.018654881
0.2,0.296273153,-0.037188625
0.3,0.291637229,-0.055504676
0.4,0.285184872,-0.073502928
0.5,0.276952162,-0.091082201
0.6,0.266985813,-0.108141154
0.7,0.25534317,-0.124578283
0.8,0.242092214,-0.140291927
0.9,0.227310492,-0.155184582
1,0.21108389,-0.169162952
1.1,0.193512669,-0.182112275
1.2,0.174705672,-0.193925992
1.3,0.154779745,-0.204508389
1.4,0.133859743,-0.213774601
1.5,0.112078523,-0.221650605
1.6,0.08957695,-0.228073228
1.7,0.066503894,-0.23299014
1.8,0.04301623,-0.236359858
1.9,0.019273014,-0.238153632
2,-0.004580509,-0.238360309
2.1,-0.028375235,-0.236973717
2.2,-0.051944937,-0.234001473
2.3,-0.075130044,-0.229466221
2.4,-0.097777635,-0.223405637
2.5,-0.119741447,-0.215872423
2.6,-0.140881867,-0.206934311
2.7,-0.161065938,-0.196674059
2.8,-0.180167354,-0.185189457
2.9,-0.198066466,-0.172593321
3,-0.214658598,-0.158986725
3.1,-0.229849647,-0.144449784
3.2,-0.243545609,-0.129085971
3.3,-0.255664572,-0.112998794
3.4,-0.266136773,-0.096291646
3.5,-0.274904598,-0.079067803
3.6,-0.281922585,-0.061430425
3.7,-0.287157422,-0.043482556
3.8,-0.290587944,-0.025327123
3.9,-0.292205246,-0.00706618
4,-0.292009201,0.011214122
4.1,-0.289996483,0.029417852
4.2,-0.286172704,0.047442877
4.3,-0.280555353,0.065187736
4.4,-0.273173803,0.082551639
4.5,-0.264069307,0.099434468
4.6,-0.253294998,0.115736776
4.7,-0.240915892,0.131359789
4.8,-0.227008886,0.146205402
4.9,-0.211662755,0.160176183
5,-0.194978157,0.173175374
5.1,-0.177050974,0.185117681
5.2,-0.15798562,0.195908043
5.3,-0.137907243,0.205446996
5.4,-0.116946075,0.213649109
5.5,-0.095237434,0.220442982
5.6,-0.072921721,0.22577125
5.7,-0.050144424,0.229590576
5.8,-0.027056115,0.23187166
5.9,-0.00381245,0.232599233
6,0.019425828,0.231772057
6.1,0.042502832,0.229401963
6.2,0.065276821,0.225510395
6.3,0.087587,0.220130668
6.4,0.109280269,0.213307245
6.5,0.130212727,0.205095653
6.6,0.150249673,0.195562484
6.7,0.169265604,0.184785391
6.8,0.187144218,0.172853089
6.9,0.203778409,0.159865357
7,0.219070271,0.145933037
7.1,0.232931268,0.131177337
7.2,0.245288304,0.115689548
7.3,0.256069684,0.099557551
7.4,0.265209985,0.082883023
7.5,0.272655611,0.065766934
7.6,0.278364797,0.04830955
7.7,0.282307601,0.030610426
7.8,0.284465913,0.012768413
7.9,0.284833448,-0.005118345
8,0.283415749,-0.022952413
8.1,0.280230091,-0.040637379
8.2,0.275297452,-0.058088045
8.3,0.268640894,-0.07520545
8.4,0.260294879,-0.091884082
8.5,0.250304945,-0.108020905
8.6,0.238727707,-0.123515348
8.7,0.225630858,-0.138269316
8.8,0.21109317,-0.152187181
8.9,0.195204491,-0.165175787
9,0.178065747,-0.177144448
9.1,0.159788942,-0.18800495
9.2,0.140491369,-0.197676066
9.3,0.120284524,-0.206087254
9.4,0.099305549,-0.213156348
9.5,0.077695888,-0.218814582
9.6,0.055598964,-0.223008747
9.7,0.033160182,-0.225701193
9.8,0.01052693,-0.226869831
9.9,-0.012151423,-0.226508127
10,-0.034723526,-0.224625108
10.1,-0.057036046,-0.221245358
10.2,-0.078934268,-0.216408666
10.3,-0.100283186,-0.210155457
10.4,-0.120942728,-0.202537472
10.5,-0.140772354,-0.193619303
10.6,-0.159641918,-0.18347285
10.7,-0.177431672,-0.172177321
10.8,-0.194032265,-0.159819231
10.9,-0.209344739,-0.146492405
11,-0.223280536,-0.132297973
11.1,-0.235761492,-0.117344375
11.2,-0.24672027,-0.101745315
11.3,-0.25610136,-0.085589089
11.4,-0.263848317,-0.068968815
11.5,-0.269913594,-0.051983453
11.6,-0.27426125,-0.034731347
11.7,-0.276866953,-0.017310229
11.8,-0.277717981,0.000182786
11.9,-0.276813221,0.017651195
12,-0.274163168,0.03499911
12.1,-0.269789929,0.052131257
12.2,-0.263727137,0.068953089
12.3,-0.256009584,0.085377845
12.4,-0.246676659,0.101305946
12.5,-0.235781282,0.116632344
12.6,-0.223386558,0.131255983
12.7,-0.209565772,0.145079806
12.8,-0.194402392,0.158010745
12.9,-0.177990071,0.16995973
13,-0.160432641,0.180841684
13.1,-0.141844119,0.190575523
13.2,-0.122347611,0.199085074
13.3,-0.10205892,0.206310699
13.4,-0.08111414,0.2121849
13.5,-0.059657579,0.216648289
13.6,-0.037833881,0.219656966
13.7,-0.015788027,0.221182514
13.8,0.006334668,0.221212001
13.9,0.028388552,0.219747982
14,0.050227638,0.216808496
14.1,0.071705602,0.212427067
14.2,0.092675784,0.206652704
14.3,0.113000685,0.199540281
14.4,0.132555991,0.19114111
14.5,0.151209647,0.181525896
14.6,0.168839682,0.17077133
14.7,0.185334691,0.158959662
14.8,0.200593835,0.146178701
14.9,0.214526839,0.132521813
15,0.227053992,0.118087925
15.1,0.238106151,0.102981522
15.2,0.247625392,0.087309917
15.3,0.255563884,0.071160717
15.4,0.261872465,0.054628231
15.5,0.266511639,0.037809675
15.6,0.269453372,0.020801723
15.7,0.270681091,0.00370051
15.8,0.270189681,-0.013398371
15.9,0.267985489,-0.030399865
16,0.264086324,-0.047209461
16.1,0.258521453,-0.063733186
16.2,0.251331523,-0.079877695
16.3,0.242557223,-0.095556343
16.4,0.232244765,-0.110670584
16.5,0.220454548,-0.125117642
16.6,0.207256557,-0.138799513
16.7,0.192730366,-0.151622963
16.8,0.176965136,-0.163499529
16.9,0.160059616,-0.174345519
17,0.142122142,-0.184082013
17.1,0.123270639,-0.19263486
17.2,0.10362823,-0.199938095
17.3,0.08331381,-0.205938854
17.4,0.062468611,-0.21057731
17.5,0.041235947,-0.213806537
17.6,0.019758746,-0.215594631
17.7,-0.001820449,-0.215924716
17.8,-0.02335948,-0.21479494
17.9,-0.044716574,-0.212218476
18,-0.065750344,-0.208223521
18.1,-0.086319789,-0.202853298
18.2,-0.106284448,-0.196165883
18.3,-0.125520017,-0.188214772
18.4,-0.143903707,-0.179060096
18.5,-0.161313066,-0.168776397
18.6,-0.177636087,-0.157443075
18.7,-0.192771214,-0.145144389
18.8,-0.206627339,-0.13196946
18.9,-0.219123802,-0.118012267
19,-0.230190394,-0.103371652
19.1,-0.239767352,-0.088151313
19.2,-0.247807326,-0.072447458
19.3,-0.254264835,-0.056347443
19.4,-0.259098223,-0.039947355
19.5,-0.262277143,-0.023342776
19.6,-0.26378256,-0.006628762
19.7,-0.263606755,0.010100147
19.8,-0.261753324,0.026749939
19.9,-0.258237175,0.043227119
20,-0.253084534,0.059438717
20.1,-0.246332937,0.075292284
20.2,-0.238028251,0.090698012
20.3,-0.228212326,0.105567906
20.4,-0.216942145,0.119800656
20.5,-0.204285135,0.13329845
20.6,-0.190317897,0.145968602
20.7,-0.175126207,0.15772355
20.8,-0.158805015,0.16848086
20.9,-0.141458447,0.178163221
21,-0.123199803,0.186698451
21.1,-0.104151001,0.194019926
21.2,-0.084427704,0.200076767
21.3,-0.064162617,0.204814046
21.4,-0.043496768,0.208183649
21.5,-0.022570506,0.210151972
21.6,-0.001523503,0.210699921
21.7,0.019505245,0.209822913
21.8,0.04037742,0.207530875
21.9,0.060955383,0.203848245
22,0.08110217,0.19881397
22.1,0.100681495,0.192481509
22.2,0.119564553,0.184910211
22.3,0.137636379,0.176151896
22.4,0.154775901,0.166277823
22.5,0.170871546,0.155364673
22.6,0.185821987,0.143493717
22.7,0.19953614,0.130750825
22.8,0.211933169,0.11722646
22.9,0.22294248,0.103015681
23,0.232503726,0.088218141
23.1,0.240568137,0.072932435
23.2,0.247093113,0.057243475
23.3,0.25203624,0.041245337
23.4,0.255365802,0.02503244
23.5,0.257061243,0.00869868
23.6,0.257113172,-0.007662567
23.7,0.25552336,-0.023958449
23.8,0.252304738,-0.040096634
23.9,0.247481402,-0.055985312
24,0.241088612,-0.071533196
24.1,0.233171972,-0.086650172
24.2,0.223773645,-0.101251682
24.3,0.212946784,-0.115240282
24.4,0.200756659,-0.12851922
24.5,0.187277408,-0.140997007
24.6,0.172592038,-0.152587419
24.7,0.156792425,-0.163209502
24.8,0.139979311,-0.172787565
24.9,0.122262309,-0.181251183
25,0.103759897,-0.188535198
25.1,0.084587307,-0.194588036
25.2,0.064869506,-0.199359279
25.3,0.044744623,-0.202800745
25.4,0.024350022,-0.204878262
25.5,0.003822295,-0.20557166
25.6,-0.016702735,-0.204874779
25.7,-0.03709001,-0.202795461
25.8,-0.057205245,-0.199355557
25.9,-0.076914923,-0.194590921
26,-0.096086293,-0.188551417
26.1,-0.114591151,-0.181296166
26.2,-0.132317455,-0.172874425
26.3,-0.149146854,-0.163353446
26.4,-0.164968938,-0.152807239
26.5,-0.179683304,-0.141314328
26.6,-0.19319956,-0.128957754
26.7,-0.205437323,-0.115825073
26.8,-0.216326222,-0.102008357
26.9,-0.225805894,-0.087604193
27,-0.233826931,-0.072710312
27.1,-0.240347999,-0.057410669
27.2,-0.245326749,-0.041797233
27.3,-0.248730795,-0.02596318
27.4,-0.250538757,-0.010001161
27.5,-0.250740259,0.005996697
27.6,-0.24933593,0.02193879
27.7,-0.246337405,0.037734037
27.8,-0.241767324,0.053291883
27.9,-0.235659332,0.068522296
28,-0.228057799,0.083336003
28.1,-0.21900509,0.097649933
28.2,-0.208551643,0.11137006
28.3,-0.196760907,0.124401234
28.4,-0.183704949,0.136653611
28.5,-0.169464457,0.148042645
28.6,-0.154128738,0.158489096
28.7,-0.137795719,0.167919024
28.8,-0.120571946,0.176263793
28.9,-0.102572587,0.183460068
29,-0.083911571,0.189456396
29.1,-0.064708536,0.194205164
29.2,-0.045098348,0.197658944
29.3,-0.025215171,0.199783777
29.4,-0.005192404,0.200559228
29.5,0.014837327,0.199978384
29.6,0.034742165,0.198047852
29.7,0.054391023,0.194787767
29.8,0.073653583,0.190231783
29.9,0.092400296,0.184427079
30,0.110505227,0.177430842
30.1,0.127858533,0.16929068
30.2,0.144344427,0.160070718
30.3,0.159854196,0.149842429
30.4,0.174288892,0.138681799
30.5,0.187559329,0.126669322
30.6,0.199586089,0.113890008
30.7,0.210299514,0.100433376
30.8,0.219639714,0.086393457
30.9,0.227557333,0.071866221
31,0.234011686,0.056934463
31.1,0.238960787,0.041688386
31.2,0.242372136,0.026219845
31.3,0.244224076,0.010620171
31.4,0.244505792,-0.005019827
31.5,0.243217312,-0.020609863
31.6,0.24036951,-0.036060174
31.7,0.2359841,-0.05128152
31.8,0.230093641,-0.066185184
31.9,0.222741364,-0.080683119
32,0.213969124,-0.094693534
32.1,0.203825748,-0.108124874
32.2,0.192373177,-0.12088393
32.3,0.179681757,-0.132882784
32.4,0.165830232,-0.144038807
32.5,0.150905747,-0.154274664
32.6,0.13500385,-0.163518311
32.7,0.11822849,-0.171702995
32.8,0.100692018,-0.178767253
32.9,0.082506002,-0.18466083
33,0.063786667,-0.189337692
33.1,0.044665537,-0.192751703
33.2,0.025273514,-0.194869703
33.3,0.005740769,-0.195671596
33.4,-0.013803263,-0.195150344
33.5,-0.033229878,-0.193311972
33.6,-0.052411107,-0.190175568
33.7,-0.071219712,-0.185773278
33.8,-0.089529192,-0.180150312
33.9,-0.107216555,-0.173361562
34,-0.124174242,-0.165452983
34.1,-0.140288751,-0.156486506
34.2,-0.155453496,-0.146531271
34.3,-0.169571405,-0.135660952
34.4,-0.182554925,-0.123953753
34.5,-0.194326013,-0.111492414
34.6,-0.204816143,-0.098364206
34.7,-0.213966304,-0.084660935
34.8,-0.221727762,-0.07047641
34.9,-0.228060239,-0.0558919
35,-0.232922238,-0.040996258
35.1,-0.236281618,-0.025879943
35.2,-0.238116919,-0.0106329
35.3,-0.238417358,0.004655444
35.4,-0.237182829,0.019896179
35.5,-0.234423905,0.035000911
35.6,-0.230161837,0.049881765
35.7,-0.224428555,0.064451381
35.8,-0.217266431,0.078623118
35.9,-0.208716151,0.092316644
36,-0.198825872,0.105442004
36.1,-0.187656322,0.117908173
36.2,-0.175276429,0.129629377
36.3,-0.161763326,0.140525095
36.4,-0.14720235,0.150520059
36.5,-0.131687041,0.159544252
36.6,-0.115319142,0.16753291
36.7,-0.098208603,0.174426522
36.8,-0.08046397,0.180176752
36.9,-0.062199359,0.184738421
37,-0.043543029,0.188067052
37.1,-0.02462261,0.190130757
37.2,-0.005565055,0.190910267
37.3,0.013503362,0.190398932
37.4,0.032457045,0.188602724
37.5,0.051171074,0.185540235
37.6,0.06952121,0.181242679
37.7,0.087383889,0.175753887
37.8,0.104639561,0.169126322
37.9,0.121183011,0.161404358
38,0.136902838,0.152648448
38.1,0.151694925,0.142925617
38.2,0.165464422,0.132307452
38.3,0.178125746,0.120870101
38.4,0.189602581,0.108694277
38.5,0.199827879,0.095865252
38.6,0.208743862,0.082472863
38.7,0.216302869,0.068608556
38.8,0.22246497,0.054351872
38.9,0.227189327,0.039790569
39,0.230444562,0.02501366
39.1,0.232209805,0.010109648
39.2,0.232474697,-0.00483347
39.3,0.231239387,-0.019728204
39.4,0.228514537,-0.034487574
39.5,0.224321316,-0.049025104
39.6,0.218691406,-0.06325483
39.7,0.211666539,-0.077091674
39.8,0.203285991,-0.090456808
39.9,0.193597892,-0.103261436
40,0.182662024,-0.115416873
40.1,0.170546189,-0.126839636
40.2,0.157326203,-0.137451444
40.3,0.143085896,-0.14717922
40.4,0.127917117,-0.155955089
40.5,0.11191973,-0.163716379
40.6,0.095201616,-0.17040562
40.7,0.077867828,-0.175976906
40.8,0.060031424,-0.180385452
40.9,0.041817432,-0.183588807
41,0.023350254,-0.185556717
41.1,0.004753677,-0.186271129
41.2,-0.013849135,-0.185726189
41.3,-0.032335636,-0.183928241
41.4,-0.050583903,-0.18089583
41.5,-0.06847263,-0.176659698
41.6,-0.085881133,-0.171262787
41.7,-0.102693774,-0.164754991
41.8,-0.118807454,-0.157179515
41.9,-0.134112958,-0.148595737
42,-0.148508911,-0.139068802
42.1,-0.161902961,-0.128668442
42.2,-0.174211781,-0.117468975
42.3,-0.185361069,-0.105549306
42.4,-0.19528555,-0.092992924
42.5,-0.203928969,-0.079887903
42.6,-0.211245135,-0.066323048
42.7,-0.217194383,-0.052376248
42.8,-0.221736779,-0.038134321
42.9,-0.224842054,-0.023684785
43,-0.226490276,-0.009114662
43.1,-0.226671856,0.005489521
43.2,-0.225387541,0.020041732
43.3,-0.22264842,0.034456435
43.4,-0.21847592,0.048648591
43.5,-0.212901809,0.062533654
43.6,-0.205967259,0.076028325
43.7,-0.197710173,0.089055106
43.8,-0.188179101,0.101526228
43.9,-0.177433136,0.113355468
44,-0.165539204,0.124461745
44.1,-0.152572066,0.134769132
44.2,-0.13861432,0.144206845
44.3,-0.123756398,0.15270925
44.4,-0.108096567,0.160215861
44.5,-0.091740796,0.166671427
44.6,-0.074790533,0.172032621
44.7,-0.057358486,0.176254901
44.8,-0.039566466,0.179298153
44.9,-0.02153572,0.18113406
45,-0.003386931,0.181746101
45.1,0.014759783,0.181129552
45.2,0.032784869,0.179291485
45.3,0.050569338,0.176250768
45.4,0.067994764,0.172038065
45.5,0.084943288,0.166695836
45.6,0.101303753,0.160271092
45.7,0.116974631,0.152806628
45.8,0.131849179,0.144360896
45.9,0.145828991,0.134997399
46,0.158824443,0.124784237
46.1,0.170754703,0.113794114
46.2,0.181547723,0.102104331
46.3,0.191140245,0.089796788
46.4,0.199477798,0.076957988
46.5,0.206515983,0.063673682
46.6,0.212215275,0.050020504
46.7,0.216536964,0.036084336
46.8,0.219452197,0.021951167
46.9,0.220942288,0.007706504
47,0.220998719,-0.006564627
47.1,0.219623138,-0.020777681
47.2,0.216827363,-0.034848594
47.3,0.212633376,-0.048693784
47.4,0.20707333,-0.062230149
47.5,0.200187727,-0.075376453
47.6,0.192013425,-0.088056129
47.7,0.182599674,-0.100182569
47.8,0.172005095,-0.111672107
47.9,0.160295971,-0.122446164
48,0.147546244,-0.132431254
48.1,0.133837515,-0.141558978
48.2,0.119259043,-0.14976603
48.3,0.103907747,-0.156994189
48.4,0.087887573,-0.163190726
48.5,0.071296834,-0.168314587
48.6,0.054248049,-0.172321721
48.7,0.036859896,-0.175174579
48.8,0.019250539,-0.176847022
48.9,0.001537631,-0.177324323
49,-0.016161689,-0.176603166
49.1,-0.033730794,-0.174691643
49.2,-0.051053572,-0.17160926
49.3,-0.06801442,-0.167386933
49.4,-0.084498252,-0.162066988
49.5,-0.100399098,-0.155692987
49.6,-0.115616121,-0.148308458
49.7,-0.130045542,-0.139970845
49.8,-0.143592103,-0.13074223
49.9,-0.156169105,-0.120689296
50,-0.167698402,-0.109883333
50.1,-0.178110408,-0.098400233
50.2,-0.187344089,-0.086320491
50.3,-0.19534697,-0.073729207
50.4,-0.202076706,-0.060708486
50.5,-0.207493747,-0.047334472
50.6,-0.211560997,-0.033691938
50.7,-0.214251288,-0.019865317
50.8,-0.215547451,-0.005938577
50.9,-0.215442308,0.00800478
51,-0.213938674,0.021881716
51.1,-0.211049358,0.035609662
51.2,-0.206797166,0.049106512
51.3,-0.201214894,0.062290626
51.4,-0.194342047,0.075083174
51.5,-0.186215086,0.087407939
51.6,-0.176884059,0.099179818
51.7,-0.166407317,0.110317786
51.8,-0.154850702,0.120745846
51.9,-0.142287543,0.130393031
52,-0.128798655,0.139193405
52.1,-0.114472341,0.147086059
52.2,-0.099404391,0.154015116
52.3,-0.083696395,0.159930727
52.4,-0.067444397,0.164793529
52.5,-0.05076055,0.168560457
52.6,-0.033760481,0.171196703
52.7,-0.016559355,0.172678504
52.8,0.000728134,0.172993138
52.9,0.017987753,0.172138922
53,0.035105737,0.17012522
53.1,0.051968787,0.166972435
53.2,0.068464068,0.162712012
53.3,0.084479357,0.157386293
53.4,0.099914308,0.151034975
53.5,0.114667997,0.143703437
53.6,0.128640138,0.135447951
53.7,0.141738777,0.126329385
53.8,0.153880292,0.116413206
53.9,0.164989389,0.105769478
54,0.174999107,0.094472863
54.1,0.183850817,0.082602621
54.2,0.191494225,0.070242592
54.3,0.197889184,0.057470466
54.4,0.202995993,0.044363023
54.5,0.206779593,0.03100357
54.6,0.209214744,0.017474968
54.7,0.210286023,0.003859628
54.8,0.20998783,-0.009760488
54.9,0.20832438,-0.023303867
55,0.205309711,-0.036689447
55.1,0.200967678,-0.049836613
55.2,0.195331958,-0.0626652
55.3,0.188440466,-0.075099184
55.4,0.180330286,-0.087061971
55.5,0.171052173,-0.098470478
55.6,0.160664384,-0.10924639
55.7,0.149232498,-0.119316358
55.8,0.136829413,-0.128612004
55.9,0.123535346,-0.137069913
56,0.109437833,-0.144631643
56.1,0.09463173,-0.151243716
56.2,0.079215722,-0.156859555
56.3,0.063284801,-0.161440738
56.4,0.046950288,-0.16494584
56.5,0.030324845,-0.167342938
56.6,0.013520714,-0.168610795
56.7,-0.003350288,-0.168738868
56.8,-0.020176766,-0.167727298
56.9,-0.03684775,-0.165586918
57,-0.053252689,-0.162339248
57.1,-0.069281458,-0.158016498
57.2,-0.084825355,-0.152660544
57.3,-0.099788585,-0.146308211
57.4,-0.114070715,-0.139006586
57.5,-0.127575103,-0.130810937
57.6,-0.140213216,-0.121781113
57.7,-0.151904634,-0.111981548
57.8,-0.162577049,-0.101481258
57.9,-0.172166264,-0.09035384
58,-0.180616195,-0.078677477
58.1,-0.187879053,-0.066534437
58.2,-0.19391643,-0.053998281
58.3,-0.198688914,-0.04114669
58.4,-0.202163752,-0.028061372
58.5,-0.204317834,-0.014823602
58.6,-0.205137695,-0.001514222
58.7,-0.204619512,0.011786357
58.8,-0.202769111,0.024998157
58.9,-0.199601957,0.038041631
59,-0.195143163,0.050837665
59.1,-0.189427472,0.063307589
59.2,-0.182490353,0.075378589
59.3,-0.174370941,0.086972923
59.4,-0.165120399,0.09801014
59.5,-0.154797044,0.108414693
59.6,-0.143466351,0.118115941
59.7,-0.131200945,0.127048144
59.8,-0.118080609,0.13515047
59.9,-0.10419228,0.142366989
60,-0.089630051,0.148646678
60.1,-0.074488933,0.1539466
60.2,-0.058864406,0.158228469
60.3,-0.042866247,0.161453247
60.4,-0.026604239,0.163591999
60.5,-0.01018778,0.164626143
60.6,0.006274115,0.164547445
60.7,0.022672817,0.163358023
60.8,0.03890008,0.161070344
60.9,0.054848044,0.157707227
61,0.070409231,0.153301841
61.1,0.085479346,0.147894785
61.2,0.099965598,0.14152148
61.3,0.113768968,0.134230283
61.4,0.12679654,0.126075645
61.5,0.138963297,0.117116574
61.6,0.150192123,0.107416639
61.7,0.160413798,0.097043969
61.8,0.169567003,0.086071252
61.9,0.177598317,0.074575736
62,0.184462783,0.062637415
62.1,0.190122999,0.050326835
62.2,0.194540586,0.03772223
62.3,0.197685274,0.024903699
62.4,0.199536262,0.011950923
62.5,0.200082218,-0.001056827
62.6,0.19932128,-0.014040698
62.7,0.197261052,-0.02692225
62.8,0.193918612,-0.039623459
62.9,0.189320502,-0.052066713
63,0.183502204,-0.064175286
63.1,0.176497005,-0.075878723
63.2,0.168346571,-0.087098614
63.3,0.159102417,-0.097757389
63.4,0.148823054,-0.107782319
63.5,0.137573986,-0.117105512
63.6,0.125427709,-0.125663918
63.7,0.112463714,-0.133399327
63.8,0.098768486,-0.140258368
63.9,0.084435488,-0.146192518
64,0.069555104,-0.15116277
64.1,0.054225101,-0.155130245
64.2,0.038552812,-0.158059049
64.3,0.022645222,-0.159923316
64.4,0.006608966,-0.160707203
64.5,-0.00944967,-0.160404896
64.6,-0.02542475,-0.159020608
64.7,-0.041210689,-0.156568574
64.8,-0.056702249,-0.153073058
64.9,-0.071794543,-0.148568352
65,-0.086388756,-0.143092638
65.1,-0.100393241,-0.136681826
65.2,-0.113711499,-0.129384907
65.3,-0.126254405,-0.121255683
65.4,-0.137940529,-0.112352482
65.5,-0.148696131,-0.102738164
